# EXTINCTION_DUSTEM.RES
# column 1: wavelength (micron)
# column 2: Cabs (cm^2/H)
# column 3: Csca (cm^2/H)
# column 4: emission for Solar neighborhood ISRF
# column 5: albedo
# column 6: asymmetry parameter
# number of rows: 800
  4.000000E-002  8.494046E-022  4.485653E-022  4.876661E-053  3.455899E-001  8.827818E-001
  4.065700E-002  8.586439E-022  4.527714E-022  1.514405E-052  3.452540E-001  8.794401E-001
  4.132500E-002  8.681940E-022  4.568243E-022  4.618988E-052  3.447683E-001  8.760203E-001
  4.200400E-002  8.815750E-022  4.618943E-022  1.402474E-051  3.438071E-001  8.716281E-001
  4.269400E-002  9.009833E-022  4.674066E-022  4.183357E-051  3.415742E-001  8.670654E-001
  4.339500E-002  9.215495E-022  4.713150E-022  1.218010E-050  3.383782E-001  8.634636E-001
  4.410800E-002  9.428120E-022  4.750976E-022  3.485768E-050  3.350690E-001  8.598205E-001
  4.483200E-002  9.655872E-022  4.782948E-022  9.757720E-050  3.312562E-001  8.564977E-001
  4.556900E-002  9.918778E-022  4.813823E-022  2.686535E-049  3.267463E-001  8.531970E-001
  4.631700E-002  1.019081E-021  4.843322E-022  7.249354E-049  3.221550E-001  8.499812E-001
  4.707800E-002  1.047389E-021  4.871891E-022  1.922716E-048  3.174743E-001  8.468421E-001
  4.785100E-002  1.077594E-021  4.896601E-022  5.012131E-048  3.124319E-001  8.436488E-001
  4.863700E-002  1.109235E-021  4.920616E-022  1.283656E-047  3.072896E-001  8.405499E-001
  4.943600E-002  1.143291E-021  4.947844E-022  3.237342E-047  3.020523E-001  8.373561E-001
  5.024800E-002  1.177789E-021  4.974545E-022  8.028490E-047  2.969446E-001  8.340942E-001
  5.107300E-002  1.212067E-021  4.998371E-022  1.960030E-046  2.919773E-001  8.307554E-001
  5.191200E-002  1.249045E-021  5.027546E-022  4.718085E-046  2.869932E-001  8.272150E-001
  5.276500E-002  1.288712E-021  5.064133E-022  1.119966E-045  2.821048E-001  8.233127E-001
  5.363200E-002  1.327840E-021  5.096535E-022  2.620819E-045  2.773634E-001  8.193392E-001
  5.451300E-002  1.370290E-021  5.143983E-022  6.078833E-045  2.729355E-001  8.143050E-001
  5.540800E-002  1.417006E-021  5.201196E-022  1.393626E-044  2.685007E-001  8.087179E-001
  5.631800E-002  1.466393E-021  5.260151E-022  3.154361E-044  2.640097E-001  8.029856E-001
  5.724300E-002  1.521598E-021  5.339302E-022  7.145842E-044  2.597533E-001  7.955504E-001
  5.818400E-002  1.612116E-021  5.425662E-022  1.601087E-043  2.518080E-001  7.877720E-001
  5.913900E-002  1.719949E-021  5.517591E-022  3.541276E-043  2.428829E-001  7.798505E-001
  6.011100E-002  1.831545E-021  5.606507E-022  7.774902E-043  2.343666E-001  7.721676E-001
  6.109800E-002  1.943677E-021  5.704009E-022  1.685458E-042  2.268828E-001  7.641082E-001
  6.210200E-002  2.056458E-021  5.808098E-022  3.608294E-042  2.202316E-001  7.559343E-001
  6.312200E-002  2.169278E-021  5.891138E-022  7.553280E-042  2.135715E-001  7.496756E-001
  6.415900E-002  2.283189E-021  5.979945E-022  1.561662E-041  2.075517E-001  7.430004E-001
  6.521300E-002  2.397576E-021  6.080150E-022  3.188583E-041  2.022947E-001  7.359244E-001
  6.628400E-002  2.509295E-021  6.160682E-022  6.342371E-041  1.971189E-001  7.309425E-001
  6.737200E-002  2.616452E-021  6.234880E-022  1.244026E-040  1.924381E-001  7.256977E-001
  6.847900E-002  2.732270E-021  6.317105E-022  2.410111E-040  1.877866E-001  7.201019E-001
  6.960400E-002  2.841413E-021  6.389016E-022  4.567021E-040  1.835758E-001  7.157398E-001
  7.074700E-002  2.926143E-021  6.446913E-022  8.496724E-040  1.805436E-001  7.119237E-001
  7.190900E-002  2.968405E-021  6.496881E-022  1.560470E-039  1.795664E-001  7.077980E-001
  7.309100E-002  2.959445E-021  6.548482E-022  2.824662E-039  1.811829E-001  7.037506E-001
  7.429100E-002  2.898572E-021  6.578267E-022  4.989956E-039  1.849699E-001  7.014287E-001
  7.551100E-002  2.795456E-021  6.577675E-022  8.706170E-039  1.904793E-001  6.988530E-001
  7.675200E-002  2.675466E-021  6.576852E-022  1.501509E-038  1.973163E-001  6.959677E-001
  7.801200E-002  2.550405E-021  6.555350E-022  2.536734E-038  2.044751E-001  6.946291E-001
  7.929400E-002  2.426847E-021  6.490571E-022  4.191802E-038  2.110134E-001  6.955361E-001
  8.059600E-002  2.314535E-021  6.419289E-022  6.850769E-038  2.171272E-001  6.960033E-001
  8.192000E-002  2.214185E-021  6.361014E-022  1.108349E-037  2.231711E-001  6.960096E-001
  8.326600E-002  2.127047E-021  6.301796E-022  1.800348E-037  2.285556E-001  6.959890E-001
  8.463400E-002  2.060889E-021  6.227892E-022  2.947383E-037  2.320655E-001  6.963682E-001
  8.602400E-002  2.002585E-021  6.162021E-022  4.781622E-037  2.353005E-001  6.967138E-001
  8.743700E-002  1.950400E-021  6.104366E-022  7.689705E-037  2.383739E-001  6.970266E-001
  8.887300E-002  1.905668E-021  6.075956E-022  1.229726E-036  2.417556E-001  6.956779E-001
  9.033300E-002  1.870676E-021  6.129465E-022  1.969790E-036  2.467954E-001  6.883705E-001
  9.181700E-002  1.833626E-021  6.172580E-022  3.085098E-036  2.518511E-001  6.824169E-001
  9.332500E-002  1.792720E-021  6.199653E-022  4.706032E-036  2.569607E-001  6.783053E-001
  9.485800E-002  1.746710E-021  6.198627E-022  7.089646E-036  2.619242E-001  6.755767E-001
  9.641600E-002  1.701068E-021  6.195663E-022  1.057420E-035  2.669815E-001  6.732971E-001
  9.799900E-002  1.656417E-021  6.194731E-022  1.562255E-035  2.721893E-001  6.711970E-001
  9.960900E-002  1.610868E-021  6.173916E-022  2.288027E-035  2.770735E-001  6.692381E-001
  1.012500E-001  1.556538E-021  6.140606E-022  3.312239E-035  2.828992E-001  6.675134E-001
  1.029100E-001  1.503761E-021  6.115224E-022  4.723749E-035  2.890972E-001  6.663659E-001
  1.046000E-001  1.450283E-021  6.082234E-022  6.624426E-035  2.954684E-001  6.668327E-001
  1.063200E-001  1.402756E-021  6.001413E-022  9.336521E-035  2.996366E-001  6.679055E-001
  1.080600E-001  1.356840E-021  5.932873E-022  1.309540E-034  3.042300E-001  6.688986E-001
  1.098400E-001  1.312688E-021  5.881884E-022  1.837670E-034  3.094302E-001  6.694804E-001
  1.116400E-001  1.273419E-021  5.822261E-022  2.558811E-034  3.137593E-001  6.697751E-001
  1.134800E-001  1.237182E-021  5.755526E-022  3.554190E-034  3.175052E-001  6.698737E-001
  1.153400E-001  1.201107E-021  5.704658E-022  4.895817E-034  3.220109E-001  6.697445E-001
  1.172300E-001  1.166062E-021  5.664822E-022  6.708281E-034  3.269655E-001  6.694458E-001
  1.191600E-001  1.134231E-021  5.624156E-022  9.154236E-034  3.314866E-001  6.690006E-001
  1.211200E-001  1.103295E-021  5.588700E-022  1.241495E-033  3.362302E-001  6.684033E-001
  1.231100E-001  1.073241E-021  5.558341E-022  1.672881E-033  3.411962E-001  6.676383E-001
  1.251300E-001  1.045013E-021  5.526164E-022  2.239738E-033  3.458977E-001  6.667244E-001
  1.271800E-001  1.018479E-021  5.489617E-022  2.979879E-033  3.502281E-001  6.656858E-001
  1.292700E-001  9.926211E-022  5.454532E-022  3.942435E-033  3.546339E-001  6.644318E-001
  1.314000E-001  9.653721E-022  5.420888E-022  5.187433E-033  3.596039E-001  6.629773E-001
  1.335600E-001  9.457325E-022  5.376494E-022  6.778464E-033  3.624484E-001  6.612999E-001
  1.357500E-001  9.271185E-022  5.333894E-022  8.785837E-033  3.652082E-001  6.593143E-001
  1.379800E-001  9.094068E-022  5.293262E-022  1.130850E-032  3.679113E-001  6.569328E-001
  1.402500E-001  8.934081E-022  5.250932E-022  1.444209E-032  3.701746E-001  6.540929E-001
  1.425500E-001  8.782182E-022  5.216148E-022  1.814251E-032  3.726265E-001  6.504628E-001
  1.448900E-001  8.610582E-022  5.197060E-022  2.215268E-032  3.763901E-001  6.465500E-001
  1.472700E-001  8.421606E-022  5.182621E-022  2.641712E-032  3.809567E-001  6.435075E-001
  1.496900E-001  8.247049E-022  5.169992E-022  3.108278E-032  3.853303E-001  6.408383E-001
  1.521500E-001  8.064918E-022  5.169237E-022  3.603255E-032  3.905982E-001  6.386299E-001
  1.546500E-001  7.897979E-022  5.189381E-022  4.161611E-032  3.965185E-001  6.350847E-001
  1.571900E-001  7.737485E-022  5.213851E-022  4.789666E-032  4.025724E-001  6.320258E-001
  1.597700E-001  7.589256E-022  5.253836E-022  5.504750E-032  4.090787E-001  6.282501E-001
  1.623900E-001  7.442332E-022  5.308460E-022  6.327516E-032  4.163240E-001  6.244354E-001
  1.650600E-001  7.305297E-022  5.380160E-022  7.298928E-032  4.241203E-001  6.200076E-001
  1.677700E-001  7.191159E-022  5.469561E-022  8.487890E-032  4.320103E-001  6.151997E-001
  1.705300E-001  7.097107E-022  5.572766E-022  9.967370E-032  4.398439E-001  6.097179E-001
  1.733300E-001  7.032106E-022  5.686747E-022  1.185650E-031  4.471116E-001  6.038445E-001
  1.761800E-001  6.997099E-022  5.805355E-022  1.431774E-031  4.534564E-001  5.969332E-001
  1.790700E-001  6.976207E-022  5.914039E-022  1.759928E-031  4.587996E-001  5.888034E-001
  1.820100E-001  6.965336E-022  6.011659E-022  2.219138E-031  4.632551E-001  5.813441E-001
  1.850000E-001  6.976860E-022  6.113283E-022  2.871509E-031  4.670142E-001  5.766994E-001
  1.880400E-001  7.058958E-022  6.217903E-022  3.813445E-031  4.683263E-001  5.752603E-001
  1.911300E-001  7.234546E-022  6.340498E-022  5.201391E-031  4.670702E-001  5.738568E-001
  1.942700E-001  7.467513E-022  6.491998E-022  7.274891E-031  4.650591E-001  5.714213E-001
  1.974600E-001  7.737768E-022  6.659821E-022  1.039151E-030  4.625650E-001  5.696008E-001
  2.007000E-001  8.088528E-022  6.818991E-022  1.508462E-030  4.574196E-001  5.665193E-001
  2.040000E-001  8.525103E-022  6.908634E-022  2.213480E-030  4.476320E-001  5.600013E-001
  2.073500E-001  8.900033E-022  6.920588E-022  3.240430E-030  4.374410E-001  5.509206E-001
  2.107600E-001  9.169246E-022  6.926977E-022  4.688821E-030  4.303480E-001  5.446060E-001
  2.142200E-001  9.273570E-022  6.905769E-022  6.631892E-030  4.268264E-001  5.424430E-001
  2.177400E-001  9.191596E-022  6.864001E-022  9.095718E-030  4.275145E-001  5.481177E-001
  2.213100E-001  8.942082E-022  6.866890E-022  1.203958E-029  4.343666E-001  5.539427E-001
  2.249500E-001  8.528590E-022  6.901103E-022  1.543449E-029  4.472612E-001  5.552043E-001
  2.286400E-001  8.006081E-022  6.947313E-022  1.925546E-029  4.645977E-001  5.572010E-001
  2.324000E-001  7.457530E-022  6.992268E-022  2.358738E-029  4.839008E-001  5.615055E-001
  2.362200E-001  6.947120E-022  6.997659E-022  2.856916E-029  5.018121E-001  5.640293E-001
  2.401000E-001  6.519734E-022  6.963116E-022  3.441774E-029  5.164424E-001  5.614344E-001
  2.440400E-001  6.124375E-022  6.848881E-022  4.140686E-029  5.279231E-001  5.558080E-001
  2.480500E-001  5.772231E-022  6.694373E-022  4.988477E-029  5.369845E-001  5.531561E-001
  2.521200E-001  5.484148E-022  6.560019E-022  6.021264E-029  5.446636E-001  5.514400E-001
  2.562700E-001  5.204874E-022  6.411163E-022  7.290617E-029  5.519234E-001  5.518398E-001
  2.604700E-001  4.960131E-022  6.276947E-022  8.843334E-029  5.585924E-001  5.570339E-001
  2.647500E-001  4.788159E-022  6.196807E-022  1.075727E-028  5.641171E-001  5.629984E-001
  2.691000E-001  4.637810E-022  6.164036E-022  1.310769E-028  5.706465E-001  5.664919E-001
  2.735200E-001  4.491164E-022  6.147201E-022  1.599082E-028  5.778333E-001  5.688813E-001
  2.780200E-001  4.375484E-022  6.141140E-022  1.953096E-028  5.839459E-001  5.725097E-001
  2.825800E-001  4.286671E-022  6.133574E-022  2.384868E-028  5.886209E-001  5.756847E-001
  2.872200E-001  4.215141E-022  6.114147E-022  2.912332E-028  5.919234E-001  5.762920E-001
  2.919400E-001  4.152198E-022  6.059132E-022  3.555298E-028  5.933734E-001  5.734524E-001
  2.967400E-001  4.081943E-022  5.954922E-022  4.337289E-028  5.933050E-001  5.692891E-001
  3.016100E-001  4.005395E-022  5.831756E-022  5.283735E-028  5.928298E-001  5.667424E-001
  3.065700E-001  3.873639E-022  5.717253E-022  4.956940E-028  5.961128E-001  5.656441E-001
  3.116000E-001  3.770644E-022  5.607706E-022  5.544008E-028  5.979416E-001  5.667257E-001
  3.167200E-001  3.667499E-022  5.520376E-022  6.241076E-028  6.008327E-001  5.711160E-001
  3.219200E-001  3.575914E-022  5.471501E-022  7.084764E-028  6.047585E-001  5.768659E-001
  3.272100E-001  3.494847E-022  5.451713E-022  8.060460E-028  6.093642E-001  5.815874E-001
  3.325800E-001  3.417466E-022  5.442093E-022  9.118810E-028  6.142623E-001  5.850735E-001
  3.380500E-001  3.343145E-022  5.437741E-022  1.023401E-027  6.192701E-001  5.887904E-001
  3.436000E-001  3.277162E-022  5.433941E-022  1.141630E-027  6.237948E-001  5.917340E-001
  3.492400E-001  3.218622E-022  5.418351E-022  1.263945E-027  6.273437E-001  5.928043E-001
  3.549800E-001  3.161497E-022  5.376006E-022  1.376310E-027  6.296930E-001  5.915109E-001
  3.608100E-001  3.097945E-022  5.295884E-022  1.459367E-027  6.309259E-001  5.883988E-001
  3.667400E-001  3.025493E-022  5.186926E-022  1.508652E-027  6.315954E-001  5.850929E-001
  3.727600E-001  2.948898E-022  5.073907E-022  1.544482E-027  6.324356E-001  5.828529E-001
  3.788800E-001  2.871153E-022  4.968131E-022  1.588208E-027  6.337480E-001  5.821671E-001
  3.851100E-001  2.793661E-022  4.877636E-022  1.638972E-027  6.358293E-001  5.834476E-001
  3.914300E-001  2.720359E-022  4.810121E-022  1.678441E-027  6.387536E-001  5.862309E-001
  3.978600E-001  2.653447E-022  4.762207E-022  1.691017E-027  6.421831E-001  5.895037E-001
  4.044000E-001  2.592659E-022  4.727506E-022  1.684106E-027  6.458196E-001  5.924257E-001
  4.110400E-001  2.536925E-022  4.699126E-022  1.682425E-027  6.494048E-001  5.948984E-001
  4.177900E-001  2.484982E-022  4.671905E-022  1.696881E-027  6.527845E-001  5.968070E-001
  4.246600E-001  2.436801E-022  4.639697E-022  1.715010E-027  6.556487E-001  5.977624E-001
  4.316300E-001  2.390307E-022  4.595506E-022  1.714328E-027  6.578341E-001  5.973280E-001
  4.387200E-001  2.342366E-022  4.532587E-022  1.683721E-027  6.592899E-001  5.952511E-001
  4.459300E-001  2.290458E-022  4.449499E-022  1.636216E-027  6.601673E-001  5.918920E-001
  4.532500E-001  2.234540E-022  4.351854E-022  1.596259E-027  6.607340E-001  5.883540E-001
  4.607000E-001  2.176824E-022  4.251621E-022  1.579363E-027  6.613763E-001  5.854686E-001
  4.682600E-001  2.119728E-022  4.156262E-022  1.586741E-027  6.622480E-001  5.834356E-001
  4.759600E-001  2.064670E-022  4.069743E-022  1.611662E-027  6.634283E-001  5.820996E-001
  4.837700E-001  2.012637E-022  3.992970E-022  1.648082E-027  6.648737E-001  5.812584E-001
  4.917200E-001  1.963854E-022  3.925372E-022  1.695310E-027  6.665344E-001  5.807076E-001
  4.998000E-001  1.918511E-022  3.865393E-022  1.751462E-027  6.683017E-001  5.803198E-001
  5.080100E-001  1.876417E-022  3.810199E-022  1.806392E-027  6.700292E-001  5.800315E-001
  5.163500E-001  1.836967E-022  3.756915E-022  1.844546E-027  6.716114E-001  5.796583E-001
  5.248300E-001  1.799330E-022  3.702177E-022  1.856823E-027  6.729387E-001  5.789587E-001
  5.334500E-001  1.762714E-022  3.642818E-022  1.850917E-027  6.739056E-001  5.776117E-001
  5.422200E-001  1.726234E-022  3.576380E-022  1.845023E-027  6.744561E-001  5.754255E-001
  5.511200E-001  1.689505E-022  3.502197E-022  1.850211E-027  6.745759E-001  5.724649E-001
  5.601800E-001  1.652657E-022  3.423377E-022  1.865111E-027  6.744196E-001  5.689688E-001
  5.693800E-001  1.616222E-022  3.342096E-022  1.883442E-027  6.740383E-001  5.652610E-001
  5.787300E-001  1.580600E-022  3.261114E-022  1.902589E-027  6.735454E-001  5.614973E-001
  5.882400E-001  1.546064E-022  3.182541E-022  1.924737E-027  6.730401E-001  5.577666E-001
  5.979000E-001  1.512626E-022  3.107375E-022  1.947140E-027  6.725918E-001  5.541720E-001
  6.077200E-001  1.480276E-022  3.035779E-022  1.958407E-027  6.722193E-001  5.508322E-001
  6.177000E-001  1.448890E-022  2.967708E-022  1.949998E-027  6.719443E-001  5.478093E-001
  6.278500E-001  1.418416E-022  2.902480E-022  1.931113E-027  6.717310E-001  5.450979E-001
  6.381600E-001  1.388836E-022  2.839175E-022  1.923166E-027  6.715155E-001  5.426364E-001
  6.486400E-001  1.360246E-022  2.776679E-022  1.939295E-027  6.711939E-001  5.402940E-001
  6.593000E-001  1.332927E-022  2.714851E-022  1.980027E-027  6.707015E-001  5.378726E-001
  6.701300E-001  1.307177E-022  2.652798E-022  2.042729E-027  6.699028E-001  5.352186E-001
  6.811300E-001  1.283133E-022  2.590383E-022  2.126482E-027  6.687420E-001  5.321795E-001
  6.923200E-001  1.260474E-022  2.527523E-022  2.230281E-027  6.672453E-001  5.286566E-001
  7.036900E-001  1.238579E-022  2.463983E-022  2.351814E-027  6.654806E-001  5.246296E-001
  7.152500E-001  1.216607E-022  2.400108E-022  2.487963E-027  6.636154E-001  5.201241E-001
  7.270000E-001  1.193996E-022  2.336721E-022  2.634607E-027  6.618261E-001  5.152258E-001
  7.389400E-001  1.171000E-022  2.274270E-022  2.788052E-027  6.601138E-001  5.100836E-001
  7.510800E-001  1.147961E-022  2.213099E-022  2.948713E-027  6.584528E-001  5.048483E-001
  7.634200E-001  1.125190E-022  2.153244E-022  3.120438E-027  6.567905E-001  4.996346E-001
  7.759600E-001  1.102827E-022  2.094328E-022  3.307998E-027  6.550598E-001  4.945101E-001
  7.887000E-001  1.081171E-022  2.037004E-022  3.515327E-027  6.532680E-001  4.894727E-001
  8.016600E-001  1.060515E-022  1.981103E-022  3.746229E-027  6.513320E-001  4.844812E-001
  8.148300E-001  1.041334E-022  1.927198E-022  4.003570E-027  6.492092E-001  4.794727E-001
  8.282100E-001  1.023699E-022  1.874959E-022  4.292191E-027  6.468368E-001  4.743617E-001
  8.418100E-001  1.007369E-022  1.824194E-022  4.619339E-027  6.442357E-001  4.690798E-001
  8.556400E-001  9.916123E-023  1.774123E-022  4.994522E-027  6.414652E-001  4.635749E-001
  8.697000E-001  9.752686E-023  1.724670E-022  5.430708E-027  6.387812E-001  4.578228E-001
  8.839800E-001  9.578245E-023  1.675560E-022  5.949636E-027  6.362762E-001  4.518213E-001
  8.985000E-001  9.399970E-023  1.627075E-022  6.586927E-027  6.338252E-001  4.456019E-001
  9.132600E-001  9.221658E-023  1.579327E-022  7.397627E-027  6.313539E-001  4.391998E-001
  9.282600E-001  9.046027E-023  1.532445E-022  8.476799E-027  6.288120E-001  4.326533E-001
  9.435100E-001  8.876496E-023  1.486827E-022  9.995645E-027  6.261705E-001  4.259809E-001
  9.590100E-001  8.715673E-023  1.442747E-022  1.227725E-026  6.234014E-001  4.191960E-001
  9.747600E-001  8.568510E-023  1.399932E-022  1.597970E-026  6.203220E-001  4.122494E-001
  9.907700E-001  8.443713E-023  1.358819E-022  2.256148E-026  6.167506E-001  4.051218E-001
  1.007000E+000  8.354864E-023  1.319376E-022  3.542572E-026  6.122785E-001  3.977605E-001
  1.023600E+000  8.327873E-023  1.281259E-022  6.246590E-026  6.060696E-001  3.901299E-001
  1.040400E+000  8.362369E-023  1.243982E-022  1.079420E-025  5.980054E-001  3.821957E-001
  1.057500E+000  8.250867E-023  1.206806E-022  1.218286E-025  5.939320E-001  3.739662E-001
  1.074900E+000  7.954410E-023  1.169427E-022  8.508694E-026  5.951683E-001  3.654482E-001
  1.092500E+000  7.699643E-023  1.132260E-022  5.561371E-026  5.952296E-001  3.566690E-001
  1.110500E+000  7.499234E-023  1.095547E-022  3.974707E-026  5.936410E-001  3.476813E-001
  1.128700E+000  7.325574E-023  1.059499E-022  3.127921E-026  5.912198E-001  3.385400E-001
  1.147200E+000  7.166925E-023  1.024736E-022  2.644133E-026  5.884456E-001  3.293056E-001
  1.166100E+000  7.019630E-023  9.916201E-023  2.351711E-026  5.855161E-001  3.200081E-001
  1.185200E+000  6.881685E-023  9.605419E-023  2.170624E-026  5.826020E-001  3.107373E-001
  1.204700E+000  6.752447E-023  9.313000E-023  2.055845E-026  5.796913E-001  3.015205E-001
  1.224500E+000  6.632171E-023  9.035754E-023  1.984603E-026  5.767039E-001  2.923601E-001
  1.244600E+000  6.519083E-023  8.771339E-023  1.942664E-026  5.736492E-001  2.833122E-001
  1.265100E+000  6.412282E-023  8.515578E-023  1.921186E-026  5.704487E-001  2.743987E-001
  1.285800E+000  6.307443E-023  8.262952E-023  1.914670E-026  5.671056E-001  2.656522E-001
  1.307000E+000  6.198770E-023  8.007533E-023  1.919224E-026  5.636606E-001  2.570655E-001
  1.328400E+000  6.086822E-023  7.750931E-023  1.932216E-026  5.601293E-001  2.486674E-001
  1.350200E+000  5.975195E-023  7.497073E-023  1.951672E-026  5.564818E-001  2.404775E-001
