# Fri Mar 27 12:12:28 2009
# Computed using:
# *  Li & Draine 2001, ApJ, 554, 778  *
# *  AND                              *
# *  Draine & Li 2007, ApJ, 657, 810. *
# Implemented by K. Misselt, 2009, UofA.
#
# 1 2.240 C         # N atoms types, Density in gr/cm^3, Reference type T
# 12.01070 1 C      # Mass of atom (u), Stoichiometry, Type
#
# x (=2pi a/wave)  Wave (micron)    Q_abs     Q_sca    Q_ext    g

   28 from  3.500E-04 to  5.976E-03 (micron) on a logrithmic grid.
 1201 from  1.000E-03 to  1.000E+04 (micron) on a logrithmic grid.

 3.50000E-04 = radius (micron)

  2.23053E+00  1.00000E-03  1.24941E-04  6.61782E-07  1.25603E-04  6.87169E-01
  2.20078E+00  1.01352E-03  1.29552E-04  6.77145E-07  1.30229E-04  6.78365E-01
  2.17140E+00  1.02723E-03  1.34101E-04  6.92398E-07  1.34793E-04  6.69231E-01
  2.14243E+00  1.04112E-03  1.39522E-04  7.09417E-07  1.40231E-04  6.59786E-01
  2.11385E+00  1.05520E-03  1.45573E-04  7.27750E-07  1.46301E-04  6.50054E-01
  2.08564E+00  1.06947E-03  1.51544E-04  7.45951E-07  1.52290E-04  6.40059E-01
  2.05782E+00  1.08393E-03  1.57435E-04  7.64001E-07  1.58199E-04  6.29824E-01
  2.03038E+00  1.09858E-03  1.63247E-04  7.81879E-07  1.64029E-04  6.19375E-01
  2.00328E+00  1.11344E-03  1.68982E-04  7.99565E-07  1.69782E-04  6.08739E-01
  1.97654E+00  1.12850E-03  1.74846E-04  8.17415E-07  1.75663E-04  5.97941E-01
  1.95017E+00  1.14376E-03  1.82696E-04  8.38857E-07  1.83535E-04  5.87008E-01
  1.92417E+00  1.15922E-03  1.90440E-04  8.60061E-07  1.91300E-04  5.75965E-01
  1.89849E+00  1.17490E-03  1.98082E-04  8.80999E-07  1.98963E-04  5.64837E-01
  1.87317E+00  1.19078E-03  2.05621E-04  9.01640E-07  2.06523E-04  5.53649E-01
  1.84816E+00  1.20689E-03  2.13060E-04  9.21954E-07  2.13982E-04  5.42424E-01
  1.82351E+00  1.22321E-03  2.20399E-04  9.41910E-07  2.21341E-04  5.31184E-01
  1.79918E+00  1.23975E-03  2.27640E-04  9.61479E-07  2.28601E-04  5.19951E-01
  1.77518E+00  1.25651E-03  2.36987E-04  9.84527E-07  2.37972E-04  5.08745E-01
  1.75150E+00  1.27350E-03  2.46222E-04  1.00716E-06  2.47229E-04  4.97584E-01
  1.72813E+00  1.29072E-03  2.55333E-04  1.02933E-06  2.56362E-04  4.86486E-01
  1.70506E+00  1.30818E-03  2.64656E-04  1.05157E-06  2.65708E-04  4.75466E-01
  1.68231E+00  1.32587E-03  2.75410E-04  1.07599E-06  2.76486E-04  4.64541E-01
  1.65987E+00  1.34380E-03  2.86020E-04  1.09984E-06  2.87120E-04  4.53723E-01
  1.63772E+00  1.36197E-03  2.96488E-04  1.12309E-06  2.97611E-04  4.43024E-01
  1.61588E+00  1.38038E-03  3.07168E-04  1.14625E-06  3.08314E-04  4.32456E-01
  1.59432E+00  1.39905E-03  3.19676E-04  1.17176E-06  3.20848E-04  4.22029E-01
  1.57305E+00  1.41797E-03  3.32017E-04  1.19657E-06  3.33214E-04  4.11750E-01
  1.55206E+00  1.43714E-03  3.44194E-04  1.22065E-06  3.45415E-04  4.01628E-01
  1.53135E+00  1.45658E-03  3.56208E-04  1.24396E-06  3.57452E-04  3.91670E-01
  1.51092E+00  1.47627E-03  3.70552E-04  1.26974E-06  3.71822E-04  3.81880E-01
  1.49076E+00  1.49624E-03  3.84996E-04  1.29506E-06  3.86291E-04  3.72264E-01
  1.47087E+00  1.51647E-03  3.99247E-04  1.31952E-06  4.00567E-04  3.62826E-01
  1.45125E+00  1.53697E-03  4.13308E-04  1.34307E-06  4.14651E-04  3.53568E-01
  1.43188E+00  1.55776E-03  4.28543E-04  1.36746E-06  4.29910E-04  3.44493E-01
  1.41278E+00  1.57882E-03  4.45772E-04  1.39375E-06  4.47166E-04  3.35603E-01
  1.39393E+00  1.60017E-03  4.62771E-04  1.41905E-06  4.64190E-04  3.26898E-01
  1.37533E+00  1.62181E-03  4.79542E-04  1.44330E-06  4.80985E-04  3.18381E-01
  1.35699E+00  1.64374E-03  4.96090E-04  1.46649E-06  4.97556E-04  3.10049E-01
  1.33888E+00  1.66597E-03  5.14912E-04  1.49155E-06  5.16404E-04  3.01904E-01
  1.32101E+00  1.68850E-03  5.35303E-04  1.51766E-06  5.36821E-04  2.93944E-01
  1.30339E+00  1.71133E-03  5.55423E-04  1.54260E-06  5.56966E-04  2.86168E-01
  1.28600E+00  1.73447E-03  5.75274E-04  1.56636E-06  5.76840E-04  2.78575E-01
  1.26885E+00  1.75792E-03  5.94860E-04  1.58890E-06  5.96449E-04  2.71163E-01
  1.25192E+00  1.78169E-03  6.16614E-04  1.61275E-06  6.18227E-04  2.63929E-01
  1.23521E+00  1.80579E-03  6.41149E-04  1.63857E-06  6.42788E-04  2.56872E-01
  1.21873E+00  1.83021E-03  6.65357E-04  1.66308E-06  6.67020E-04  2.49989E-01
  1.20247E+00  1.85495E-03  6.89242E-04  1.68627E-06  6.90928E-04  2.43278E-01
  1.18643E+00  1.88004E-03  7.12808E-04  1.70813E-06  7.14516E-04  2.36736E-01
  1.17060E+00  1.90546E-03  7.36060E-04  1.72863E-06  7.37789E-04  2.30359E-01
  1.15498E+00  1.93123E-03  7.65592E-04  1.75306E-06  7.67345E-04  2.24146E-01
  1.13957E+00  1.95734E-03  7.95280E-04  1.77652E-06  7.97056E-04  2.18092E-01
  1.12437E+00  1.98381E-03  8.24573E-04  1.79857E-06  8.26372E-04  2.12195E-01
  1.10936E+00  2.01064E-03  8.53474E-04  1.81919E-06  8.55293E-04  2.06452E-01
  1.09457E+00  2.03782E-03  8.81990E-04  1.83837E-06  8.83828E-04  2.00859E-01
  1.07996E+00  2.06538E-03  9.10127E-04  1.85611E-06  9.11983E-04  1.95413E-01
  1.06555E+00  2.09331E-03  9.46773E-04  1.87892E-06  9.48652E-04  1.90111E-01
  1.05133E+00  2.12162E-03  9.83268E-04  1.90048E-06  9.85169E-04  1.84950E-01
  1.03731E+00  2.15030E-03  1.01928E-03  1.92054E-06  1.02120E-03  1.79927E-01
  1.02347E+00  2.17938E-03  1.05480E-03  1.93910E-06  1.05674E-03  1.75037E-01
  1.00982E+00  2.20885E-03  1.08986E-03  1.95616E-06  1.09182E-03  1.70279E-01
  9.96342E-01  2.23872E-03  1.12445E-03  1.97172E-06  1.12642E-03  1.65649E-01
  9.83050E-01  2.26899E-03  1.16452E-03  1.98866E-06  1.16651E-03  1.61144E-01
  9.69931E-01  2.29968E-03  1.21032E-03  2.00716E-06  1.21233E-03  1.56760E-01
  9.56993E-01  2.33077E-03  1.25552E-03  2.02415E-06  1.25754E-03  1.52495E-01
  9.44224E-01  2.36229E-03  1.30011E-03  2.03966E-06  1.30215E-03  1.48346E-01
  9.31628E-01  2.39423E-03  1.34411E-03  2.05368E-06  1.34616E-03  1.44309E-01
  9.19196E-01  2.42661E-03  1.38752E-03  2.06621E-06  1.38959E-03  1.40383E-01
  9.06934E-01  2.45942E-03  1.43036E-03  2.07728E-06  1.43244E-03  1.36563E-01
  8.94832E-01  2.49268E-03  1.47905E-03  2.08933E-06  1.48114E-03  1.32848E-01
  8.82893E-01  2.52639E-03  1.53711E-03  2.10380E-06  1.53921E-03  1.29234E-01
  8.71114E-01  2.56055E-03  1.59439E-03  2.11685E-06  1.59651E-03  1.25719E-01
  8.59490E-01  2.59518E-03  1.65092E-03  2.12849E-06  1.65305E-03  1.22300E-01
  8.48024E-01  2.63027E-03  1.70669E-03  2.13873E-06  1.70883E-03  1.18974E-01
  8.36708E-01  2.66584E-03  1.76172E-03  2.14757E-06  1.76387E-03  1.15740E-01
  8.25548E-01  2.70188E-03  1.81602E-03  2.15502E-06  1.81818E-03  1.12594E-01
  8.14532E-01  2.73842E-03  1.86959E-03  2.16110E-06  1.87175E-03  1.09535E-01
  8.03665E-01  2.77545E-03  1.93482E-03  2.16575E-06  1.93699E-03  1.06559E-01
  7.92942E-01  2.81298E-03  2.00943E-03  2.16929E-06  2.01160E-03  1.03665E-01
  7.82362E-01  2.85102E-03  2.08305E-03  2.17186E-06  2.08522E-03  1.00851E-01
  7.71925E-01  2.88957E-03  2.15569E-03  2.17345E-06  2.15786E-03  9.81137E-02
  7.61627E-01  2.92864E-03  2.22736E-03  2.17405E-06  2.22953E-03  9.54516E-02
  7.51463E-01  2.96825E-03  2.29809E-03  2.17367E-06  2.30026E-03  9.28624E-02
  7.41439E-01  3.00838E-03  2.36787E-03  2.17231E-06  2.37004E-03  9.03443E-02
  7.31545E-01  3.04907E-03  2.43673E-03  2.16997E-06  2.43890E-03  8.78953E-02
  7.21785E-01  3.09030E-03  2.50467E-03  2.16666E-06  2.50684E-03  8.55134E-02
  7.12156E-01  3.13208E-03  2.58698E-03  2.16213E-06  2.58914E-03  8.31970E-02
  7.02653E-01  3.17444E-03  2.67258E-03  2.15691E-06  2.67474E-03  8.09441E-02
  6.93280E-01  3.21736E-03  2.75704E-03  2.15109E-06  2.75919E-03  7.87529E-02
  6.84029E-01  3.26087E-03  2.84038E-03  2.14465E-06  2.84252E-03  7.66218E-02
  6.74904E-01  3.30496E-03  2.93583E-03  2.13386E-06  2.93796E-03  7.45492E-02
  6.65900E-01  3.34965E-03  3.03060E-03  2.12275E-06  3.03272E-03  7.25334E-02
  6.57014E-01  3.39495E-03  3.12411E-03  2.11145E-06  3.12622E-03  7.05728E-02
  6.48248E-01  3.44086E-03  3.21638E-03  2.09993E-06  3.21848E-03  6.86658E-02
  6.39599E-01  3.48739E-03  3.32276E-03  2.08038E-06  3.32484E-03  6.68112E-02
  6.31067E-01  3.53454E-03  3.42883E-03  2.06088E-06  3.43089E-03  6.50074E-02
  6.22646E-01  3.58234E-03  3.53350E-03  2.04192E-06  3.53554E-03  6.32528E-02
  6.14339E-01  3.63078E-03  3.63677E-03  2.02342E-06  3.63879E-03  6.15462E-02
  6.06142E-01  3.67988E-03  3.73132E-03  2.00630E-06  3.73333E-03  5.98861E-02
  5.98055E-01  3.72964E-03  3.82112E-03  1.98972E-06  3.82311E-03  5.82712E-02
  5.90077E-01  3.78007E-03  3.93030E-03  2.00249E-06  3.93230E-03  5.67001E-02
  5.82203E-01  3.83119E-03  4.06261E-03  2.04900E-06  4.06466E-03  5.51713E-02
  5.74436E-01  3.88299E-03  4.28389E-03  2.13437E-06  4.28602E-03  5.36844E-02
  5.66772E-01  3.93550E-03  4.96483E-03  2.44511E-06  4.96727E-03  5.22387E-02
  5.59210E-01  3.98872E-03  5.88142E-03  2.59275E-06  5.88401E-03  5.08393E-02
  5.51748E-01  4.04266E-03  6.09751E-03  2.11041E-06  6.09962E-03  4.94854E-02
  5.44388E-01  4.09732E-03  5.21333E-03  1.48198E-06  5.21481E-03  4.81571E-02
  5.37124E-01  4.15273E-03  5.12887E-03  1.61621E-06  5.13049E-03  4.68543E-02
  5.29958E-01  4.20888E-03  6.70492E-03  2.14434E-06  6.70706E-03  4.56053E-02
  5.22887E-01  4.26580E-03  3.69203E-03  5.58684E-07  3.69259E-03  4.43951E-02
  5.15911E-01  4.32348E-03  6.02747E-03  1.84828E-06  6.02932E-03  4.31797E-02
  5.09028E-01  4.38194E-03  3.30041E-04  4.05883E-07  3.30447E-04  4.20669E-02
  5.02236E-01  4.44120E-03  2.69055E-04  3.12384E-09  2.69058E-04  4.09104E-02
  4.95536E-01  4.50125E-03  2.78299E-04  5.05832E-08  2.78350E-04  3.98021E-02
  4.88924E-01  4.56212E-03  2.87877E-04  1.23410E-07  2.88000E-04  3.87282E-02
  4.82401E-01  4.62381E-03  2.97825E-04  1.92668E-07  2.98018E-04  3.76851E-02
  4.75964E-01  4.68634E-03  3.08050E-04  2.52452E-07  3.08302E-04  3.66712E-02
  4.69614E-01  4.74971E-03  3.18140E-04  3.17532E-07  3.18458E-04  3.56847E-02
  4.63349E-01  4.81393E-03  3.29586E-04  3.65997E-07  3.29952E-04  3.47258E-02
  4.57167E-01  4.87903E-03  3.41501E-04  4.06586E-07  3.41908E-04  3.37931E-02
  4.51068E-01  4.94500E-03  3.53260E-04  4.47394E-07  3.53707E-04  3.28856E-02
  4.45050E-01  5.01187E-03  3.64864E-04  4.88208E-07  3.65352E-04  3.20027E-02
  4.39112E-01  5.07964E-03  3.76315E-04  5.28837E-07  3.76844E-04  3.11437E-02
  4.33253E-01  5.14833E-03  3.87615E-04  5.69110E-07  3.88184E-04  3.03079E-02
  4.27473E-01  5.21795E-03  4.01397E-04  6.00285E-07  4.01997E-04  2.94949E-02
  4.21769E-01  5.28851E-03  4.15893E-04  6.27715E-07  4.16521E-04  2.87039E-02
  4.16142E-01  5.36002E-03  4.30197E-04  6.54255E-07  4.30851E-04  2.79343E-02
  4.10590E-01  5.43250E-03  4.44313E-04  6.79860E-07  4.44993E-04  2.71854E-02
  4.05112E-01  5.50596E-03  4.58243E-04  7.04490E-07  4.58948E-04  2.64568E-02
  3.99707E-01  5.58042E-03  4.71989E-04  7.28116E-07  4.72717E-04  2.57478E-02
  3.94374E-01  5.65588E-03  4.86811E-04  7.50355E-07  4.87561E-04  2.50579E-02
  3.89112E-01  5.73236E-03  5.04866E-04  7.70575E-07  5.05637E-04  2.43866E-02
  3.83921E-01  5.80987E-03  5.22684E-04  7.89751E-07  5.23474E-04  2.37334E-02
  3.78798E-01  5.88844E-03  5.40267E-04  8.07877E-07  5.41075E-04  2.30978E-02
  3.73745E-01  5.96806E-03  5.57619E-04  8.24950E-07  5.58444E-04  2.24793E-02
  3.68758E-01  6.04876E-03  5.74742E-04  8.40973E-07  5.75583E-04  2.18774E-02
  3.63838E-01  6.13056E-03  5.91641E-04  8.55952E-07  5.92497E-04  2.12918E-02
  3.58984E-01  6.21346E-03  6.09060E-04  8.70226E-07  6.09930E-04  2.07218E-02
  3.54194E-01  6.29748E-03  6.29827E-04  8.85062E-07  6.30712E-04  2.01672E-02
  3.49468E-01  6.38264E-03  6.50321E-04  8.98839E-07  6.51220E-04  1.96275E-02
  3.44806E-01  6.46894E-03  6.70547E-04  9.11571E-07  6.71459E-04  1.91022E-02
  3.40206E-01  6.55642E-03  6.91823E-04  9.23982E-07  6.92747E-04  1.85911E-02
  3.35667E-01  6.64508E-03  7.15226E-04  9.36649E-07  7.16163E-04  1.80937E-02
  3.31188E-01  6.73493E-03  7.38322E-04  9.48267E-07  7.39270E-04  1.76096E-02
  3.26769E-01  6.82601E-03  7.61116E-04  9.58855E-07  7.62075E-04  1.71385E-02
  3.22410E-01  6.91831E-03  7.84633E-04  9.69114E-07  7.85602E-04  1.66800E-02
  3.18108E-01  7.01186E-03  8.09932E-04  9.79747E-07  8.10912E-04  1.62338E-02
  3.13864E-01  7.10668E-03  8.35493E-04  9.89735E-07  8.36483E-04  1.57996E-02
  3.09676E-01  7.20278E-03  8.62698E-04  9.99975E-07  8.63698E-04  1.53770E-02
  3.05545E-01  7.30018E-03  8.89827E-04  1.00933E-06  8.90836E-04  1.49657E-02
  3.01468E-01  7.39889E-03  9.20209E-04  1.01950E-06  9.21228E-04  1.45654E-02
  2.97446E-01  7.49894E-03  9.50194E-04  1.02863E-06  9.51223E-04  1.41759E-02
  2.93477E-01  7.60035E-03  9.79787E-04  1.03674E-06  9.80824E-04  1.37967E-02
  2.89562E-01  7.70312E-03  1.00899E-03  1.04385E-06  1.01003E-03  1.34278E-02
  2.85699E-01  7.80728E-03  1.04140E-03  1.05194E-06  1.04245E-03  1.30687E-02
  2.81887E-01  7.91286E-03  1.07619E-03  1.06054E-06  1.07725E-03  1.27191E-02
  2.78126E-01  8.01986E-03  1.11053E-03  1.06811E-06  1.11160E-03  1.23790E-02
  2.74415E-01  8.12831E-03  1.14442E-03  1.07468E-06  1.14549E-03  1.20479E-02
  2.70754E-01  8.23822E-03  1.17787E-03  1.08028E-06  1.17895E-03  1.17257E-02
  2.67142E-01  8.34962E-03  1.21672E-03  1.08803E-06  1.21781E-03  1.14120E-02
  2.63577E-01  8.46253E-03  1.25697E-03  1.09577E-06  1.25807E-03  1.11068E-02
  2.60061E-01  8.57696E-03  1.29669E-03  1.10247E-06  1.29779E-03  1.08097E-02
  2.56591E-01  8.69294E-03  1.33590E-03  1.10818E-06  1.33701E-03  1.05205E-02
  2.53168E-01  8.81049E-03  1.37459E-03  1.11293E-06  1.37570E-03  1.02391E-02
  2.49790E-01  8.92963E-03  1.41866E-03  1.11933E-06  1.41978E-03  9.96520E-03
  2.46457E-01  9.05038E-03  1.46578E-03  1.12633E-06  1.46691E-03  9.69856E-03
  2.43169E-01  9.17276E-03  1.51229E-03  1.13231E-06  1.51342E-03  9.43906E-03
  2.39925E-01  9.29680E-03  1.55819E-03  1.13730E-06  1.55933E-03  9.18649E-03
  2.36724E-01  9.42251E-03  1.60351E-03  1.14133E-06  1.60465E-03  8.94069E-03
  2.33565E-01  9.54993E-03  1.64946E-03  1.14491E-06  1.65060E-03  8.70145E-03
  2.30449E-01  9.67906E-03  1.70583E-03  1.15191E-06  1.70698E-03  8.46851E-03
  2.27374E-01  9.80995E-03  1.76148E-03  1.15788E-06  1.76264E-03  8.24180E-03
  2.24341E-01  9.94260E-03  1.81641E-03  1.16284E-06  1.81757E-03  8.02116E-03
  2.21349E-01  1.00770E-02  1.87064E-03  1.16683E-06  1.87181E-03  7.80641E-03
  2.18395E-01  1.02133E-02  1.92417E-03  1.16987E-06  1.92534E-03  7.59741E-03
  2.15481E-01  1.03514E-02  1.97917E-03  1.17279E-06  1.98034E-03  7.39399E-03
  2.12606E-01  1.04914E-02  2.04669E-03  1.17959E-06  2.04787E-03  7.19589E-03
  2.09768E-01  1.06333E-02  2.11334E-03  1.18536E-06  2.11453E-03  7.00310E-03
  2.06969E-01  1.07771E-02  2.17914E-03  1.19010E-06  2.18033E-03  6.81546E-03
  2.04209E-01  1.09228E-02  2.24410E-03  1.19386E-06  2.24529E-03  6.63284E-03
  2.01484E-01  1.10705E-02  2.30823E-03  1.19667E-06  2.30943E-03  6.45510E-03
  1.98796E-01  1.12202E-02  2.37154E-03  1.19856E-06  2.37274E-03  6.28212E-03
  1.96144E-01  1.13719E-02  2.44742E-03  1.20329E-06  2.44862E-03  6.11368E-03
  1.93527E-01  1.15257E-02  2.52913E-03  1.20891E-06  2.53034E-03  5.94971E-03
  1.90946E-01  1.16815E-02  2.60980E-03  1.21350E-06  2.61101E-03  5.79013E-03
  1.88397E-01  1.18395E-02  2.68945E-03  1.21711E-06  2.69067E-03  5.63481E-03
  1.85884E-01  1.19996E-02  2.76808E-03  1.21976E-06  2.76930E-03  5.48364E-03
  1.83403E-01  1.21619E-02  2.84571E-03  1.22148E-06  2.84693E-03  5.33652E-03
  1.80957E-01  1.23263E-02  2.92236E-03  1.22231E-06  2.92358E-03  5.19334E-03
  1.78542E-01  1.24930E-02  3.00908E-03  1.22513E-06  3.01031E-03  5.05392E-03
  1.76161E-01  1.26619E-02  3.10312E-03  1.22918E-06  3.10435E-03  4.91819E-03
  1.73809E-01  1.28332E-02  3.19597E-03  1.23224E-06  3.19720E-03  4.78609E-03
  1.71491E-01  1.30067E-02  3.28764E-03  1.23436E-06  3.28887E-03  4.65753E-03
  1.69203E-01  1.31826E-02  3.38983E-03  1.23818E-06  3.39107E-03  4.53235E-03
  1.66946E-01  1.33608E-02  3.49466E-03  1.24190E-06  3.49590E-03  4.41051E-03
  1.64718E-01  1.35415E-02  3.59817E-03  1.24465E-06  3.59941E-03  4.29192E-03
  1.62521E-01  1.37246E-02  3.70038E-03  1.24646E-06  3.70163E-03  4.17651E-03
  1.60352E-01  1.39102E-02  3.81442E-03  1.24991E-06  3.81567E-03  4.06414E-03
  1.58213E-01  1.40983E-02  3.93207E-03  1.25336E-06  3.93332E-03  3.95476E-03
  1.56102E-01  1.42889E-02  4.04823E-03  1.25585E-06  4.04949E-03  3.84831E-03
  1.54019E-01  1.44822E-02  4.16295E-03  1.25740E-06  4.16421E-03  3.74471E-03
  1.51964E-01  1.46780E-02  4.28687E-03  1.25993E-06  4.28813E-03  3.64385E-03
  1.49937E-01  1.48765E-02  4.42136E-03  1.26362E-06  4.42262E-03  3.54565E-03
  1.47937E-01  1.50776E-02  4.55417E-03  1.26634E-06  4.55544E-03  3.45008E-03
  1.45963E-01  1.52815E-02  4.68532E-03  1.26811E-06  4.68659E-03  3.35707E-03
  1.44015E-01  1.54882E-02  4.81484E-03  1.26898E-06  4.81611E-03  3.26655E-03
  1.42094E-01  1.56976E-02  4.96869E-03  1.27311E-06  4.96996E-03  3.17838E-03
  1.40198E-01  1.59099E-02  5.12191E-03  1.27646E-06  5.12319E-03  3.09258E-03
  1.38327E-01  1.61250E-02  5.27323E-03  1.27884E-06  5.27451E-03  3.00907E-03
  1.36481E-01  1.63431E-02  5.42267E-03  1.28029E-06  5.42395E-03  2.92780E-03
  1.34661E-01  1.65641E-02  5.57508E-03  1.28145E-06  5.57636E-03  2.84870E-03
  1.32865E-01  1.67880E-02  5.75321E-03  1.28516E-06  5.75450E-03  2.77167E-03
  1.31091E-01  1.70151E-02  5.92913E-03  1.28790E-06  5.93042E-03  2.69670E-03
  1.29343E-01  1.72451E-02  6.10288E-03  1.28970E-06  6.10417E-03  2.62375E-03
  1.27617E-01  1.74783E-02  6.27447E-03  1.29060E-06  6.27576E-03  2.55275E-03
  1.25914E-01  1.77147E-02  6.44442E-03  1.29067E-06  6.44571E-03  2.48365E-03
  1.24234E-01  1.79542E-02  6.65256E-03  1.29485E-06  6.65385E-03  2.41633E-03
  1.22577E-01  1.81970E-02  6.85815E-03  1.29805E-06  6.85945E-03  2.35082E-03
  1.20941E-01  1.84431E-02  7.06119E-03  1.30030E-06  7.06249E-03  2.28707E-03
  1.19328E-01  1.86925E-02  7.26174E-03  1.30163E-06  7.26304E-03  2.22503E-03
  1.17736E-01  1.89452E-02  7.45983E-03  1.30206E-06  7.46113E-03  2.16466E-03
  1.16165E-01  1.92014E-02  7.68119E-03  1.30385E-06  7.68249E-03  2.10588E-03
  1.14615E-01  1.94611E-02  7.92602E-03  1.30698E-06  7.92733E-03  2.04865E-03
  1.13086E-01  1.97242E-02  8.16784E-03  1.30917E-06  8.16915E-03  1.99295E-03
  1.11577E-01  1.99909E-02  8.40669E-03  1.31046E-06  8.40800E-03  1.93876E-03
  1.10088E-01  2.02613E-02  8.64261E-03  1.31088E-06  8.64392E-03  1.88603E-03
  1.08619E-01  2.05353E-02  8.87563E-03  1.31045E-06  8.87694E-03  1.83471E-03
  1.07171E-01  2.08129E-02  9.13080E-03  1.31159E-06  9.13211E-03  1.78474E-03
  1.05740E-01  2.10944E-02  9.40448E-03  1.31392E-06  9.40579E-03  1.73609E-03
  1.04330E-01  2.13796E-02  9.67480E-03  1.31534E-06  9.67612E-03  1.68874E-03
  1.02938E-01  2.16687E-02  9.95294E-03  1.31658E-06  9.95426E-03  1.64267E-03
  1.01565E-01  2.19617E-02  1.02468E-02  1.31813E-06  1.02481E-02  1.59782E-03
  1.00209E-01  2.22587E-02  1.05484E-02  1.31949E-06  1.05497E-02  1.55418E-03
  9.88724E-02  2.25597E-02  1.08631E-02  1.32100E-06  1.08644E-02  1.51170E-03
  9.75530E-02  2.28648E-02  1.11740E-02  1.32164E-06  1.11753E-02  1.47036E-03
  9.62519E-02  2.31739E-02  1.15033E-02  1.32274E-06  1.15046E-02  1.43013E-03
  9.49675E-02  2.34873E-02  1.18385E-02  1.32357E-06  1.18398E-02  1.39098E-03
  9.37005E-02  2.38049E-02  1.21939E-02  1.32497E-06  1.21952E-02  1.35288E-03
  9.24503E-02  2.41268E-02  1.25613E-02  1.32649E-06  1.25626E-02  1.31579E-03
  9.12167E-02  2.44531E-02  1.29243E-02  1.32719E-06  1.29256E-02  1.27970E-03
  8.99999E-02  2.47837E-02  1.32827E-02  1.32707E-06  1.32840E-02  1.24459E-03
  8.87989E-02  2.51189E-02  1.36841E-02  1.32769E-06  1.36854E-02  1.21042E-03
  8.76144E-02  2.54585E-02  1.40825E-02  1.32761E-06  1.40838E-02  1.17718E-03
  8.64453E-02  2.58028E-02  1.44760E-02  1.32677E-06  1.44773E-02  1.14484E-03
  8.52920E-02  2.61517E-02  1.49174E-02  1.32739E-06  1.49187E-02  1.11335E-03
  8.41541E-02  2.65053E-02  1.53579E-02  1.32746E-06  1.53592E-02  1.08272E-03
